T (K)      Macro Gruneisen          Macro Gruneisen            LTEC (K-1)               LTEC (K-1)        
1     -4.242813224307230e+01    4.032481442579971e+00   -1.195925704163007e-10    2.095227695123807e-10
2     -4.039144355377039e+01    3.937627465439703e+00   -9.430991492610398e-10    1.709059022211908e-09
3     -3.477253501566152e+01    3.784460057473873e+00   -2.104288679558159e-09    4.403748750526740e-09
4     -2.812474159704198e+01    3.659983432132599e+00   -3.568877410897504e-09    9.364984227408073e-09
5     -2.309653603247166e+01    3.553656374712574e+00   -5.360808704324309e-09    1.727949723290806e-08
6     -1.967294370461975e+01    3.451014627462104e+00   -7.490750947085814e-09    2.827454918135297e-08
7     -1.725992477175185e+01    3.350163892596624e+00   -9.943082176657884e-09    4.233443284758671e-08
8     -1.545718672011646e+01    3.253557816975937e+00   -1.268941146542834e-08    5.945757868228739e-08
9     -1.404341022545410e+01    3.163355263148861e+00   -1.569849547751513e-08    7.966352141628825e-08
10    -1.289440434798034e+01    3.080483972774991e+00   -1.894049697443511e-08    1.029779400691340e-07
11    -1.193590530745599e+01    3.004968269267100e+00   -2.238844270680818e-08    1.294252355643493e-07
12    -1.112045734630725e+01    2.936379515345510e+00   -2.601854640555224e-08    1.590284548949326e-07
13    -1.041594467799166e+01    2.874125101094148e+00   -2.981008909265045e-08    1.918129514019765e-07
14    -9.799588775686665e+00    2.817589986002082e+00   -3.374513551273688e-08    2.278110648440100e-07
15    -9.254628582150882e+00    2.766193513334821e+00   -3.780820663241028e-08    2.670659880074753e-07
16    -8.768389884371429e+00    2.719406174006303e+00   -4.198596141570739e-08    3.096336634710892e-07
17    -8.331103536262532e+00    2.676749705762565e+00   -4.626690876348797e-08    3.555821887445946e-07
18    -7.935140204486670e+00    2.637791292507412e+00   -5.064115406699858e-08    4.049887920524142e-07
19    -7.574485115633363e+00    2.602136588001805e+00   -5.510017734209756e-08    4.579348872474771e-07
20    -7.244358268656192e+00    2.569423571936591e+00   -5.963663763305984e-08    5.144999656873006e-07
21    -6.940929050700452e+00    2.539317962551689e+00   -6.424419877041358e-08    5.747551372287237e-07
22    -6.661096943601836e+00    2.511510246444494e+00   -6.891737296378337e-08    6.387570387543969e-07
23    -6.402321644924970e+00    2.485714043768857e+00   -7.365138015347058e-08    7.065426501291875e-07
24    -6.162491770633830e+00    2.461665387775389e+00   -7.844202210915630e-08    7.781253516528175e-07
25    -5.939824270702950e+00    2.439122492543560e+00   -8.328557085687634e-08    8.534923648919958e-07
26    -5.732788316387685e+00    2.417865655952153e+00   -8.817867120953028e-08    9.326035631696645e-07
27    -5.540048476528097e+00    2.397697051011420e+00   -9.311825710260771e-08    1.015391527198886e-06
28    -5.360422836384912e+00    2.378440265470108e+00   -9.810148122365889e-08    1.101762653799912e-06
29    -5.192852456365773e+00    2.359939538569294e+00   -1.031256571704656e-07    1.191599094433524e-06
30    -5.036379250588119e+00    2.342058707599815e+00   -1.081882131434608e-07    1.284761296538368e-06
31    -4.890129980635582e+00    2.324679915742975e+00   -1.132866560070624e-07    1.381090935614919e-06
32    -4.753304595419089e+00    2.307702150811800e+00   -1.184185444542792e-07    1.480414052128252e-06
33    -4.625167596281442e+00    2.291039687669279e+00   -1.235814699768702e-07    1.582544238734224e-06
34    -4.505041467784066e+00    2.274620500779966e+00   -1.287730443692337e-07    1.687285755852198e-06
35    -4.392301495866714e+00    2.258384702040526e+00   -1.339908925645587e-07    1.794436484437009e-06
36    -4.286371507053683e+00    2.242283045976866e+00   -1.392326497027732e-07    1.903790652315829e-06
37    -4.186720217368277e+00    2.226275531680395e+00   -1.444959614490882e-07    2.015141293873873e-06
38    -4.092857989638422e+00    2.210330119652533e+00   -1.497784867092435e-07    2.128282422006447e-06
39    -4.004333873680594e+00    2.194421572543983e+00   -1.550779020150622e-07    2.243010906290481e-06
40    -3.920732854444378e+00    2.178530421695764e+00   -1.603919069760086e-07    2.359128062670919e-06
41    -3.841673265774153e+00    2.162642056248104e+00   -1.657182303053889e-07    2.476440968114466e-06
42    -3.766804347511615e+00    2.146745928097403e+00   -1.710546360314840e-07    2.594763519190723e-06
43    -3.695803935313093e+00    2.130834863830713e+00   -1.763989295932508e-07    2.713917256913756e-06
44    -3.628376278732901e+00    2.114904473643082e+00   -1.817489635971522e-07    2.833731981881990e-06
45    -3.564249985887392e+00    2.098952646874054e+00   -1.871026430766195e-07    2.954046184196915e-06
46    -3.503176093764215e+00    2.082979123959806e+00   -1.924579301494634e-07    3.074707312162111e-06
47    -3.444926262899177e+00    2.066985135107346e+00   -1.978128480122750e-07    3.195571902642188e-06
48    -3.389291094295723e+00    2.050973096719961e+00   -2.031654842456523e-07    3.316505594418542e-06
49    -3.336078565464239e+00    2.034946357437065e+00   -2.085139934311276e-07    3.437383044087735e-06
50    -3.285112581511661e+00    2.018908986524870e+00   -2.138565991010727e-07    3.558087762139557e-06
51    -3.236231636418244e+00    2.002865598217241e+00   -2.191915950576958e-07    3.678511884921786e-06
52    -3.189287579037393e+00    1.986821206426869e+00   -2.245173461074640e-07    3.798555896315550e-06
53    -3.144144477949959e+00    1.970781105006344e+00   -2.298322882637468e-07    3.918128311155708e-06
54    -3.100677579079286e+00    1.954750769426739e+00   -2.351349284739421e-07    4.037145330764034e-06
55    -3.058772349902037e+00    1.938735776354801e+00   -2.404238439284405e-07    4.155530479436083e-06
56    -3.018323604143285e+00    1.922741738149343e+00   -2.456976810080878e-07    4.273214229342273e-06
57    -2.979234700994481e+00    1.906774249766812e+00   -2.509551539247538e-07    4.390133620070383e-06
58    -2.941416813114670e+00    1.890838845970628e+00   -2.561950431066097e-07    4.506231877945564e-06
59    -2.904788257946695e+00    1.874940967084646e+00   -2.614161933760636e-07    4.621458039307686e-06
60    -2.869273887183517e+00    1.859085931824781e+00   -2.666175119642623e-07    4.735766581094438e-06
61    -2.834804529540617e+00    1.843278915990471e+00   -2.717979664018194e-07    4.849117061361795e-06
62    -2.801316482317846e+00    1.827524936005510e+00   -2.769565823211607e-07    4.961473771759849e-06
63    -2.768751047559440e+00    1.811828836471283e+00   -2.820924412016737e-07    5.072805403461053e-06
64    -2.737054108938285e+00    1.796195281039706e+00   -2.872046780848195e-07    5.183084727598896e-06
65    -2.706175745795469e+00    1.780628746032624e+00   -2.922924792825586e-07    5.292288290908101e-06
66    -2.676069881056002e+00    1.765133516333087e+00   -2.973550800989061e-07    5.400396126953611e-06
67    -2.646693960014471e+00    1.749713683155111e+00   -3.023917625811813e-07    5.507391483086322e-06
68    -2.618008657239642e+00    1.734373143365316e+00   -3.074018533145754e-07    5.613260563061527e-06
69    -2.589977609084254e+00    1.719115600084575e+00   -3.123847212710167e-07    5.717992285094305e-06
70    -2.562567169505805e+00    1.703944564342794e+00   -3.173397757209583e-07    5.821578054998875e-06
71    -2.535746187106616e+00    1.688863357596774e+00   -3.222664642146552e-07    5.924011553960935e-06
72    -2.509485801487477e+00    1.673875114951471e+00   -3.271642706376911e-07    6.025288540418480e-06
73    -2.483759257179873e+00    1.658982788949860e+00   -3.320327133439664e-07    6.125406665473773e-06
74    -2.458541733577890e+00    1.644189153817295e+00   -3.368713433680235e-07    6.224365301223221e-06
75    -2.433810189433701e+00    1.629496810063353e+00   -3.416797427174844e-07    6.322165381370391e-06
76    -2.409543220610647e+00    1.614908189358424e+00   -3.464575227454189e-07    6.418809253476975e-06
77    -2.385720929906787e+00    1.600425559614354e+00   -3.512043226017115e-07    6.514300542205874e-06
78    -2.362324807869895e+00    1.586051030208560e+00   -3.559198077618642e-07    6.608644022917037e-06
79    -2.339337623623387e+00    1.571786557299718e+00   -3.606036686311837e-07    6.701845504989233e-06
80    -2.316743324812309e+00    1.557633949190557e+00   -3.652556192219196e-07    6.793911724257984e-06
81    -2.294526945859975e+00    1.543594871699714e+00   -3.698753959006345e-07    6.884850243980287e-06
82    -2.272674523800015e+00    1.529670853510218e+00   -3.744627562028870e-07    6.974669363759807e-06
83    -2.251173021015960e+00    1.515863291467124e+00   -3.790174777121791e-07    7.063378035890890e-06
84    -2.230010254281661e+00    1.502173455801079e+00   -3.835393570000411e-07    7.150985788605520e-06
85    -2.209174829551541e+00    1.488602495258541e+00   -3.880282086241096e-07    7.237502655733787e-06
86    -2.188656082000149e+00    1.475151442122703e+00   -3.924838641810677e-07    7.322939112314954e-06
87    -2.168444020856342e+00    1.461821217112242e+00   -3.969061714113666e-07    7.407306015722561e-06
88    -2.148529278619150e+00    1.448612634147712e+00   -4.012949933527190e-07    7.490614551893013e-06
89    -2.128903064280098e+00    1.435526404977777e+00   -4.056502075394572e-07    7.572876186272284e-06
90    -2.109557120211096e+00    1.422563143659619e+00   -4.099717052449514e-07    7.654102619119985e-06
91    -2.090483682408149e+00    1.409723370889712e+00   -4.142593907644062e-07    7.734305744833533e-06
92    -2.071675443809313e+00    1.397007518182832e+00   -4.185131807354862e-07    7.813497614977852e-06
93    -2.053125520430970e+00    1.384415931898542e+00   -4.227330034943511e-07    7.891690404727352e-06
94    -2.034827420089634e+00    1.371948877115712e+00   -4.269187984648120e-07    7.968896382447749e-06
95    -2.016775013497576e+00    1.359606541356642e+00   -4.310705155784653e-07    8.045127882164321e-06
96    -1.998962507539584e+00    1.347389038163270e+00   -4.351881147237857e-07    8.120397278681683e-06
97    -1.981384420555415e+00    1.335296410528708e+00   -4.392715652222946e-07    8.194716965137274e-06
98    -1.964035559468143e+00    1.323328634187946e+00   -4.433208453300461e-07    8.268099332787065e-06
99    -1.946910998612761e+00    1.311485620772074e+00   -4.473359417627979e-07    8.340556752836928e-06
100   -1.930006060132189e+00    1.299767220830736e+00   -4.513168492433468e-07    8.412101560147524e-06
101   -1.913316295819452e+00    1.288173226727793e+00   -4.552635700696258e-07    8.482746038653581e-06
102   -1.896837470295298e+00    1.276703375415413e+00   -4.591761137022638e-07    8.552502408350969e-06
103   -1.880565545420006e+00    1.265357351091843e+00   -4.630544963704086e-07    8.621382813716329e-06
104   -1.864496665846779e+00    1.254134787748225e+00   -4.668987406947083e-07    8.689399313434719e-06
105   -1.848627145631868e+00    1.243035271609746e+00   -4.707088753264381e-07    8.756563871320735e-06
106   -1.832953455823676e+00    1.232058343476379e+00   -4.744849346018405e-07    8.822888348327619e-06
107   -1.817472212959430e+00    1.221203500968348e+00   -4.782269582108183e-07    8.888384495547531e-06
108   -1.802180168403852e+00    1.210470200681271e+00   -4.819349908792037e-07    8.953063948113949e-06
109   -1.787074198469509e+00    1.199857860255824e+00   -4.856090820638822e-07    9.016938219924463e-06
110   -1.772151295263235e+00    1.189365860366485e+00   -4.892492856601175e-07    9.080018699109009e-06
111   -1.757408558207440e+00    1.178993546633778e+00   -4.928556597204786e-07    9.142316644174824e-06
112   -1.742843186188963e+00    1.168740231464158e+00   -4.964282661848198e-07    9.203843180764963e-06
113   -1.728452470291768e+00    1.158605195821445e+00   -4.999671706208219e-07    9.264609298972810e-06
114   -1.714233787073000e+00    1.148587690933517e+00   -5.034724419746281e-07    9.324625851159619e-06
115   -1.700184592344915e+00    1.138686939937667e+00   -5.069441523311713e-07    9.383903550226731e-06
116   -1.686302415427880e+00    1.128902139467847e+00   -5.103823766838040e-07    9.442452968298214e-06
117   -1.672584853842150e+00    1.119232461186758e+00   -5.137871927128935e-07    9.500284535773515e-06
118   -1.659029568408352e+00    1.109677053265528e+00   -5.171586805730574e-07    9.557408540713100e-06
119   -1.645634278728726e+00    1.100235041813502e+00   -5.204969226887578e-07    9.613835128523360e-06
120   -1.632396759023053e+00    1.090905532260465e+00   -5.238020035579863e-07    9.669574301909998e-06
121   -1.619314834294958e+00    1.081687610693419e+00   -5.270740095637914e-07    9.724635921071707e-06
122   -1.606386376805909e+00    1.072580345149839e+00   -5.303130287934349e-07    9.779029704108591e-06
123   -1.593609302835701e+00    1.063582786869193e+00   -5.335191508649615e-07    9.832765227621918e-06
124   -1.580981569709593e+00    1.054693971504313e+00   -5.366924667609912e-07    9.885851927483976e-06
125   -1.568501173073588e+00    1.045912920294076e+00   -5.398330686695607e-07    9.938299099758575e-06
126   -1.556166144400451e+00    1.037238641198732e+00   -5.429410498318426e-07    9.990115901754718e-06
127   -1.543974548710229e+00    1.028670129999049e+00   -5.460165043965871e-07    1.004131135319730e-05
128   -1.531924482490045e+00    1.020206371360400e+00   -5.490595272811390e-07    1.009189433750037e-05
129   -1.520014071798866e+00    1.011846339862737e+00   -5.520702140388924e-07    1.014187360312964e-05
130   -1.508241470543869e+00    1.003589000997391e+00   -5.550486607330404e-07    1.019125776504247e-05
131   -1.496604858915864e+00    9.954333121314907e-01   -5.579949638165045e-07    1.024005530619416e-05
132   -1.485102441971981e+00    9.873782234407611e-01   -5.609092200179082e-07    1.028827457910109e-05
133   -1.473732448354602e+00    9.794226788113906e-01   -5.637915262334779e-07    1.033592380745134e-05
134   -1.462493129136200e+00    9.715656167116085e-01   -5.666419794247586e-07    1.038301108775532e-05
135   -1.451382756780354e+00    9.638059710335620e-01   -5.694606765220181e-07    1.042954439102855e-05
136   -1.440399624209889e+00    9.561426719060571e-01   -5.722477143332375e-07    1.047553156450050e-05
137   -1.429542043973590e+00    9.485746464786849e-01   -5.750031894585644e-07    1.052098033334339e-05
138   -1.418808347503538e+00    9.411008196778409e-01   -5.777271982101232e-07    1.056589830241561e-05
139   -1.408196884455602e+00    9.337201149351144e-01   -5.804198365370710e-07    1.061029295801509e-05
140   -1.397706022126075e+00    9.264314548885225e-01   -5.830811999557785e-07    1.065417166963829e-05
141   -1.387334144937966e+00    9.192337620570390e-01   -5.857113834850347e-07    1.069754169174103e-05
142   -1.377079653990803e+00    9.121259594888692e-01   -5.883104815861530e-07    1.074041016549763e-05
143   -1.366940966668294e+00    9.051069713839187e-01   -5.908785881078724e-07    1.078278412055546e-05
144   -1.356916516298478e+00    8.981757236908928e-01   -5.934157962359297e-07    1.082467047678210e-05
145   -1.347004751861466e+00    8.913311446794715e-01   -5.959221984472000e-07    1.086607604600271e-05
146   -1.337204137740116e+00    8.845721654880062e-01   -5.983978864682754e-07    1.090700753372550e-05
147   -1.327513153509371e+00    8.778977206471822e-01   -6.008429512383738e-07    1.094747154085346e-05
148   -1.317930293760271e+00    8.713067485801020e-01   -6.032574828764572e-07    1.098747456538070e-05
149   -1.308454067954917e+00    8.647981920792438e-01   -6.056415706524348e-07    1.102702300407185e-05
150   -1.299083000308982e+00    8.583709987607573e-01   -6.079953029623374e-07    1.106612315412347e-05
151   -1.289815629698572e+00    8.520241214965706e-01   -6.103187673073380e-07    1.110478121480632e-05
152   -1.280650509588498e+00    8.457565188247733e-01   -6.126120502764962e-07    1.114300328908746e-05
153   -1.271586207979257e+00    8.395671553387658e-01   -6.148752375331051e-07    1.118079538523164e-05
154   -1.262621307370207e+00    8.334550020556499e-01   -6.171084138045169e-07    1.121816341838100e-05
155   -1.253754404736652e+00    8.274190367643630e-01   -6.193116628753214e-07    1.125511321211299e-05
156   -1.244984111518702e+00    8.214582443540422e-01   -6.214850675837560e-07    1.129165049997558e-05
157   -1.236309053619993e+00    8.155716171231240e-01   -6.236287098212229e-07    1.132778092699983e-05
158   -1.227727871414467e+00    8.097581550696782e-01   -6.257426705347850e-07    1.136351005118930e-05
159   -1.219239219759624e+00    8.040168661634878e-01   -6.278270297325215e-07    1.139884334498626e-05
160   -1.210841768014748e+00    7.983467666003776e-01   -6.298818664916155e-07    1.143378619671454e-05
161   -1.202534200062782e+00    7.927468810393070e-01   -6.319072589690540e-07    1.146834391199891e-05
162   -1.194315214334635e+00    7.872162428227273e-01   -6.339032844148108e-07    1.150252171516113e-05
163   -1.186183523834835e+00    7.817538941807272e-01   -6.358700191873994e-07    1.153632475059252e-05
164   -1.178137856167529e+00    7.763588864194634e-01   -6.378075387716637e-07    1.156975808410333e-05
165   -1.170176953561971e+00    7.710302800943877e-01   -6.397159177986979e-07    1.160282670424889e-05
166   -1.162299572896693e+00    7.657671451687762e-01   -6.415952300677642e-07    1.163553552363280e-05
167   -1.154504485721671e+00    7.605685611580589e-01   -6.434455485701014e-07    1.166788938018727e-05
168   -1.146790478277880e+00    7.554336172604486e-01   -6.452669455145038e-07    1.169989303843088e-05
169   -1.139156351513672e+00    7.503614124743609e-01   -6.470594923545510e-07    1.173155119070398e-05
170   -1.131600921097542e+00    7.453510557031104e-01   -6.488232598173845e-07    1.176286845838197e-05
171   -1.124123017426854e+00    7.404016658473657e-01   -6.505583179339111e-07    1.179384939306668e-05
172   -1.116721485632199e+00    7.355123718858382e-01   -6.522647360703324e-07    1.182449847775635e-05
173   -1.109395185577081e+00    7.306823129446698e-01   -6.539425829608845e-07    1.185482012799421e-05
174   -1.102142991852709e+00    7.259106383559781e-01   -6.555919267416906e-07    1.188481869299614e-05
175   -1.094963793767696e+00    7.211965077060174e-01   -6.572128349856153e-07    1.191449845675779e-05
176   -1.087856495332515e+00    7.165390908733874e-01   -6.588053747380310e-07    1.194386363914129e-05
177   -1.080820015238604e+00    7.119375680577373e-01   -6.603696125533854e-07    1.197291839694203e-05
178   -1.073853286832047e+00    7.073911297993781e-01   -6.619056145324862e-07    1.200166682493578e-05
179   -1.066955258081781e+00    7.028989769902269e-01   -6.634134463604003e-07    1.203011295690653e-05
180   -1.060124891542330e+00    6.984603208764878e-01   -6.648931733448852e-07    1.205826076665531e-05
181   -1.053361164311054e+00    6.940743830534651e-01   -6.663448604552552e-07    1.208611416899041e-05
182   -1.046663067979983e+00    6.897403954528935e-01   -6.677685723616078e-07    1.211367702069930e-05
183   -1.040029608582255e+00    6.854576003231653e-01   -6.691643734743202e-07    1.214095312150258e-05
184   -1.033459806533266e+00    6.812252502028187e-01   -6.705323279837344e-07    1.216794621499029e-05
185   -1.026952696566604e+00    6.770426078876421e-01   -6.718724998999647e-07    1.219465998954098e-05
186   -1.020507327664887e+00    6.729089463917414e-01   -6.731849530927414e-07    1.222109807922377e-05
187   -1.014122762985617e+00    6.688235489029042e-01   -6.744697513312217e-07    1.224726406468380e-05
188   -1.007798079782183e+00    6.647857087325866e-01   -6.757269583237080e-07    1.227316147401138e-05
189   -1.001532369320167e+00    6.607947292608345e-01   -6.769566377571953e-07    1.229879378359514e-05
